0.995147 -0.098400 0.098400 0.995147 -752.467831 374.272131
0.997688 -0.067955 0.067955 0.997688 -704.171407 554.407838
0.996551 0.082980 -0.082980 0.996551 -563.792163 811.812813
0.998472 0.055251 -0.055251 0.998472 -523.289029 942.087138
0.982450 0.186528 -0.186528 0.982450 -289.974618 1183.103963
0.987782 0.155844 -0.155844 0.987782 -259.541473 1184.532183
0.980286 0.197585 -0.197585 0.980286 -165.419236 1145.536656
0.809266 0.587443 -0.587443 0.809266 319.542220 1030.527694
0.770282 0.637704 -0.637704 0.770282 350.366767 890.378961
0.832094 0.554635 -0.554635 0.832094 231.556779 684.571449
0.732374 0.680902 -0.680902 0.732374 206.272731 458.328463
0.730446 0.682970 -0.682970 0.730446 154.643328 325.102135
0.565320 0.824872 -0.824872 0.565320 148.780237 176.387741
0.644567 0.764548 -0.764548 0.644567 80.279866 84.933997
0.580372 0.814351 -0.814351 0.580372 46.102449 5.092976
0.375199 0.926944 -0.926944 0.375199 7.220946 -55.182175
0.307411 0.951577 -0.951577 0.307411 -20.927823 -107.886334
0.290209 0.956963 -0.956963 0.290209 -20.278150 -160.778093
0.150772 0.988569 -0.988569 0.150772 -82.021475 -173.723435
0.151216 0.988501 -0.988501 0.151216 -147.972986 -211.064455
0.170323 0.985388 -0.985388 0.170323 -206.314739 -265.198889
0.193586 0.981083 -0.981083 0.193586 -279.260325 -288.674894
0.163212 0.986591 -0.986591 0.163212 -382.015636 -347.180742
0.166515 0.986039 -0.986039 0.166515 -444.233965 -431.012240
0.653625 0.756819 -0.756819 0.653625 -203.921043 -630.914295
0.789610 0.613608 -0.613608 0.789610 -137.145335 -735.875136
0.844001 0.536341 -0.536341 0.844001 -77.040586 -812.028634
0.766484 0.642263 -0.642263 0.766484 -207.169411 -783.546774
0.394945 0.918705 -0.918705 0.394945 -452.978825 -524.155456
0.249449 0.968388 -0.968388 0.249449 -519.150218 -428.975031
-0.227098 0.973872 -0.973872 -0.227098 -598.457079 -149.144334
-0.222693 0.974889 -0.974889 -0.222693 -570.904380 -191.708429
0.219037 0.975717 -0.975717 0.219037 -365.099179 -363.365686
0.247606 0.968861 -0.968861 0.247606 -266.368750 -336.340395
0.719592 0.694398 -0.694398 0.719592 -9.381222 -352.714772
0.575588 0.817740 -0.817740 0.575588 -50.644491 -271.205600
0.528603 0.848869 -0.848869 0.528603 -16.412855 -207.408986
0.684959 0.728581 -0.728581 0.684959 72.901486 -191.337924
0.742968 0.669327 -0.669327 0.742968 98.158936 -136.363407
0.831850 0.555001 -0.555001 0.831850 110.515245 -70.244126
0.916415 0.400229 -0.400229 0.916415 136.046641 -30.959642
0.951398 0.307964 -0.307964 0.951398 110.888393 38.066937
0.905975 0.423331 -0.423331 0.905975 137.640733 99.107368
0.941483 0.337062 -0.337062 0.941483 158.674096 206.595482
0.959120 0.282998 -0.282998 0.959120 159.047758 331.898621
0.935666 0.352888 -0.352888 0.935666 217.016580 454.987608
0.965852 0.259095 -0.259095 0.965852 241.294131 610.321686
0.952359 0.304978 -0.304978 0.952359 269.185575 720.917035
0.964140 0.265393 -0.265393 0.964140 238.135354 833.087073
0.949083 0.315026 -0.315026 0.949083 313.518108 860.554995
0.979579 0.201061 -0.201061 0.979579 176.819739 909.381314
0.986123 0.166018 -0.166018 0.986123 114.630159 887.066741
0.990958 0.134176 -0.134176 0.990958 55.104871 797.583404
0.996767 0.080349 -0.080349 0.996767 -1.799309 657.271244
0.997979 0.063543 -0.063543 0.997979 -27.924208 496.251205
