-0.055287 0.998471 -0.998471 -0.055287 485.179281 686.213181
-0.055648 0.998450 -0.998450 -0.055648 637.045964 630.395004
-0.056601 0.998397 -0.998397 -0.056601 796.622066 585.059766
-0.056823 0.998384 -0.998384 -0.056823 942.909647 521.805501
-0.056945 0.998377 -0.998377 -0.056945 1135.243147 441.637025
-0.056566 0.998399 -0.998399 -0.056566 1152.746738 376.368472
-0.056011 0.998430 -0.998430 -0.056011 1110.317589 326.821979
-0.054765 0.998499 -0.998499 -0.054765 1039.141741 290.308456
-0.054916 0.998491 -0.998491 -0.054916 924.261246 247.533260
-0.054210 0.998530 -0.998530 -0.054210 707.168595 148.893213
-0.054523 0.998513 -0.998513 -0.054523 484.189892 134.809377
-0.054583 0.998509 -0.998509 -0.054583 348.528663 90.187184
-0.054790 0.998498 -0.998498 -0.054790 225.469485 49.109117
-0.054715 0.998502 -0.998502 -0.054715 116.671211 6.816842
-0.054682 0.998504 -0.998504 -0.054682 39.202515 -24.789858
-0.054808 0.998497 -0.998497 -0.054808 -16.941784 -53.011229
-0.054574 0.998510 -0.998510 -0.054574 -58.252271 -93.188561
-0.054602 0.998508 -0.998508 -0.054602 -74.045799 -144.145823
-0.054532 0.998512 -0.998512 -0.054532 -115.807731 -153.283801
-0.054295 0.998525 -0.998525 -0.054295 -188.038023 -176.311970
-0.054174 0.998532 -0.998532 -0.054174 -260.358066 -212.390914
-0.054100 0.998536 -0.998536 -0.054100 -341.775207 -210.972111
-0.053713 0.998556 -0.998556 -0.053713 -447.980565 -256.483582
-0.054157 0.998532 -0.998532 -0.054157 -528.064223 -322.898657
-0.053428 0.998572 -0.998572 -0.053428 -584.292855 -313.430215
-0.054021 0.998540 -0.998540 -0.054021 -682.779519 -306.811322
-0.054622 0.998507 -0.998507 -0.054622 -745.825825 -330.256861
-0.054620 0.998507 -0.998507 -0.054620 -751.352320 -303.865765
-0.055177 0.998477 -0.998477 -0.055177 -638.916024 -267.796698
-0.054729 0.998501 -0.998501 -0.054729 -624.480078 -252.113383
-0.054889 0.998492 -0.998492 -0.054889 -563.554739 -250.601206
-0.054558 0.998511 -0.998511 -0.054558 -530.243514 -285.527141
-0.054557 0.998511 -0.998511 -0.054557 -450.154518 -250.385588
-0.054861 0.998494 -0.998494 -0.054861 -355.099246 -240.793891
-0.055582 0.998454 -0.998454 -0.055582 -273.160507 -223.336193
-0.054783 0.998498 -0.998498 -0.054783 -207.772680 -181.515441
-0.055095 0.998481 -0.998481 -0.055095 -132.604056 -160.324775
-0.054994 0.998487 -0.998487 -0.054994 -88.238692 -184.766774
-0.054746 0.998500 -0.998500 -0.054746 -44.549087 -162.004735
-0.055325 0.998468 -0.998468 -0.055325 -4.344001 -130.877754
-0.055435 0.998462 -0.998462 -0.055435 18.439447 -138.301030
-0.055421 0.998463 -0.998463 -0.055421 65.061155 -97.531397
-0.055276 0.998471 -0.998471 -0.055276 143.256287 -90.801311
-0.055236 0.998473 -0.998473 -0.055236 243.205129 -93.329667
-0.055565 0.998455 -0.998455 -0.055565 359.522462 -78.717746
-0.055840 0.998440 -0.998440 -0.055840 499.142109 -70.477480
-0.056339 0.998412 -0.998412 -0.056339 646.741702 -111.537390
-0.055274 0.998471 -0.998471 -0.055274 765.475333 -78.928826
-0.055813 0.998441 -0.998441 -0.055813 864.587369 -56.843635
-0.054341 0.998522 -0.998522 -0.054341 912.714076 -76.167708
-0.054810 0.998497 -0.998497 -0.054810 925.497581 -41.156050
-0.054425 0.998518 -0.998518 -0.054425 894.325568 -14.465643
-0.055458 0.998461 -0.998461 -0.055458 799.443833 8.086391
-0.054844 0.998495 -0.998495 -0.054844 657.010503 18.599028
-0.055167 0.998477 -0.998477 -0.055167 495.999431 32.087129
