-57.79
-55.82
-53.74
-51.69
-47.67
-45.67
-43.64
-41.54
-39.53
-37.56
-33.63
-31.57
-29.52
-27.53
-25.51
-23.39
-21.35
-19.46
-17.21
-15.10
-13.31
-11.21
-9.07
-7.54
-4.95
-3.30
-1.87
-0.26
2.22
4.10
6.49
8.39
10.26
12.21
14.14
16.31
18.25
20.01
22.04
24.03
25.83
27.84
29.81
31.59
33.65
35.74
37.56
39.66
41.74
43.74
45.77
47.81
49.79
51.88
53.88
