453.17
453.19
453.24
453.26
453.26
453.24
453.21
453.14
453.15
453.11
453.13
453.13
453.14
453.14
453.13
453.14
453.13
453.13
453.13
453.11
453.11
453.10
453.08
453.10
453.06
453.10
453.13
93.13
93.16
93.14
93.15
93.13
93.13
93.14
93.19
93.14
93.16
93.15
93.14
93.17
93.18
93.18
93.17
93.17
93.19
93.20
93.23
93.17
93.20
93.12
93.14
93.12
93.18
93.14
93.16
